# Final ejected mass (during the TP-AGB phase)
#   computed for a set of metallicity and a range of low/intermediate mass by Karakas+2010Are listed here only main ISM elements H1, He4, C12, N14, O16 and Fe56
# Metal eand Total ejected mass are also added
# Z=0.02
# 1) Mass, 2) Ej_H1, 3) Ej_He4, 4) Ej_C12, 5) Ej_N14, 6) Ej_O16, 7) Ej_Fe56, 8) Ej_Z 9) Ej_tot
   8.00000000e-01   1.82512985e-01   8.44120127e-02   7.96406154e-04   3.33322037e-04   2.61569676e-03   3.17149992e-04   4.82200864e-03   2.71747007e-01
   9.00000000e-01   2.33917331e-01   1.08696348e-01   9.68587520e-04   4.79108075e-04   3.35540838e-03   4.08266947e-04   6.29305997e-03   3.48906739e-01
   1.00000000e+00   2.92000000e-01   1.36000000e-01   1.15000000e-03   6.62000000e-04   4.19000000e-03   5.11000000e-04   8.00000000e-03   4.36000000e-01
   1.10000000e+00   3.55021885e-01   1.65339310e-01   1.33294283e-03   8.79300910e-04   5.09323022e-03   6.21863034e-04   9.90771484e-03   5.30268909e-01
   1.20000000e+00   4.20415986e-01   1.95310948e-01   1.50827285e-03   1.12272163e-03   6.02675086e-03   7.35810099e-04   1.19531991e-02   6.27680133e-01
   1.30000000e+00   4.84903299e-01   2.24176619e-01   1.66610748e-03   1.37803959e-03   6.94198733e-03   8.46513541e-04   1.40446970e-02   7.23124615e-01
   1.40000000e+00   5.45093854e-01   2.50201183e-01   1.79816932e-03   1.62719801e-03   7.78909345e-03   9.47624630e-04   1.60689709e-02   8.11364008e-01
   1.50000000e+00   6.06000000e-01   2.76000000e-01   1.93000000e-03   1.88000000e-03   8.64000000e-03   1.05000000e-03   1.80000000e-02   9.00000000e-01
   1.60000000e+00   6.70277780e-01   3.02934014e-01   2.07506173e-03   2.14003408e-03   9.53215642e-03   1.15964941e-03   1.97923336e-02   9.93004128e-01
   1.70000000e+00   7.36470168e-01   3.30458522e-01   2.23458153e-03   2.39405951e-03   1.04477780e-02   1.27391029e-03   2.13489130e-02   1.08827760e+00
   1.80000000e+00   8.00854554e-01   3.57289148e-01   2.40944584e-03   2.61593182e-03   1.13449217e-02   1.38484732e-03   2.25510913e-02   1.18069479e+00
   1.90000000e+00   8.63000000e-01   3.83000000e-01   2.59000000e-03   2.81000000e-03   1.22000000e-02   1.49000000e-03   2.40000000e-02   1.27000000e+00
   2.00000000e+00   9.25000000e-01   4.08000000e-01   2.77000000e-03   3.02000000e-03   1.30000000e-02   1.59000000e-03   2.70000000e-02   1.36000000e+00
   2.10000000e+00   9.87204294e-01   4.35093056e-01   3.10279035e-03   3.27065249e-03   1.38230927e-02   1.69421827e-03   2.84339088e-02   1.45073126e+00
   2.20000000e+00   1.04922805e+00   4.64626740e-01   3.70475574e-03   3.55349705e-03   1.46740502e-02   1.80384273e-03   2.88443995e-02   1.54269919e+00
   2.30000000e+00   1.11051860e+00   4.95771204e-01   4.81961685e-03   3.82132914e-03   1.55249038e-02   1.91699031e-03   3.19223942e-02   1.63821220e+00
   2.40000000e+00   1.17056143e+00   5.28495231e-01   6.80562606e-03   4.06608992e-03   1.63685268e-02   2.03324871e-03   3.81788849e-02   1.73723555e+00
   2.50000000e+00   1.23000000e+00   5.62000000e-01   9.39000000e-03   4.31000000e-03   1.72000000e-02   2.15000000e-03   4.50000000e-02   1.83700000e+00
   2.60000000e+00   1.28894531e+00   5.95802417e-01   1.21262263e-02   4.56368308e-03   1.80135942e-02   2.26553460e-03   5.10528097e-02   1.93580053e+00
   2.70000000e+00   1.34704574e+00   6.29707561e-01   1.46571087e-02   4.82715898e-03   1.88029235e-02   2.37896046e-03   5.61328284e-02   2.03288613e+00
   2.80000000e+00   1.40421286e+00   6.63547520e-01   1.66973928e-02   5.09983823e-03   1.95667187e-02   2.48982661e-03   6.01629766e-02   2.12792336e+00
   2.90000000e+00   1.46181340e+00   6.97358763e-01   1.86903583e-02   5.37792107e-03   2.03313171e-02   2.60017614e-03   6.37603702e-02   2.22293253e+00
   3.00000000e+00   1.52000000e+00   7.31000000e-01   2.07000000e-02   5.66000000e-03   2.11000000e-02   2.71000000e-03   6.70000000e-02   2.31800000e+00
   3.10000000e+00   1.57865743e+00   7.64285066e-01   2.26833305e-02   5.94514460e-03   2.18710095e-02   2.81882860e-03   6.98358877e-02   2.41277838e+00
   3.20000000e+00   1.63766424e+00   7.97021897e-01   2.45938801e-02   6.23235805e-03   2.26425134e-02   2.92617910e-03   7.22212229e-02   2.50690736e+00
   3.30000000e+00   1.69706189e+00   8.28828542e-01   2.62972418e-02   6.52111245e-03   2.34148363e-02   3.03176828e-03   7.41385941e-02   2.60002903e+00
   3.40000000e+00   1.75778381e+00   8.58331023e-01   2.71913786e-02   6.81368908e-03   2.42000260e-02   3.13641872e-03   7.57323914e-02   2.69184723e+00
   3.50000000e+00   1.82000000e+00   8.85000000e-01   2.71000000e-02   7.11000000e-03   2.50000000e-02   3.24000000e-03   7.70000000e-02   2.78200000e+00
   3.60000000e+00   1.88371617e+00   9.08510773e-01   2.60330105e-02   7.40940877e-03   2.58144963e-02   3.34217298e-03   7.78817929e-02   2.87010873e+00
   3.70000000e+00   1.94893651e+00   9.28571269e-01   2.41044117e-02   7.71123919e-03   2.66432237e-02   3.44259377e-03   7.82856627e-02   2.95579344e+00
   3.80000000e+00   2.01515143e+00   9.45828010e-01   2.16923988e-02   8.01500228e-03   2.74816597e-02   3.54129966e-03   7.82071245e-02   3.03918657e+00
   3.90000000e+00   2.07913732e+00   9.65609170e-01   1.99475111e-02   8.32137564e-03   2.83030886e-02   3.64034254e-03   7.83574577e-02   3.12310395e+00
   4.00000000e+00   2.14000000e+00   9.89000000e-01   1.89000000e-02   8.63000000e-03   2.91000000e-02   3.74000000e-03   7.90000000e-02   3.20800000e+00
   4.10000000e+00   2.19735124e+00   1.01624144e+00   1.84512948e-02   8.94027044e-03   2.98689829e-02   3.84017248e-03   8.02368579e-02   3.29382954e+00
   4.20000000e+00   2.25081761e+00   1.04761863e+00   1.85602509e-02   9.25155444e-03   3.06066760e-02   3.94075685e-03   8.21087656e-02   3.38054501e+00
   4.30000000e+00   2.30064150e+00   1.08308686e+00   1.91273487e-02   9.57486025e-03   3.13136413e-02   4.04187874e-03   8.44633402e-02   3.46819171e+00
   4.40000000e+00   2.35018306e+00   1.12063847e+00   1.95151334e-02   9.98345375e-03   3.20105379e-02   4.14487456e-03   8.64893577e-02   3.55731089e+00
   4.50000000e+00   2.40000000e+00   1.16000000e+00   1.96000000e-02   1.05000000e-02   3.27000000e-02   4.25000000e-03   8.80000000e-02   3.64800000e+00
   4.60000000e+00   2.45006497e+00   1.20127013e+00   1.93779761e-02   1.11393002e-02   3.33808902e-02   4.35728427e-03   8.89277275e-02   3.74026282e+00
   4.70000000e+00   2.50034978e+00   1.24455357e+00   1.88594299e-02   1.19202851e-02   3.40520652e-02   4.46675658e-03   8.91989348e-02   3.83410228e+00
   4.80000000e+00   2.55073965e+00   1.28967699e+00   1.80441458e-02   1.28998277e-02   3.47086773e-02   4.57811853e-03   8.89476212e-02   3.92936426e+00
   4.90000000e+00   2.60067473e+00   1.33495936e+00   1.68364558e-02   1.43350818e-02   3.53267620e-02   4.68936143e-03   8.94443724e-02   4.02507847e+00
   5.00000000e+00   2.65000000e+00   1.38000000e+00   1.53000000e-02   1.64000000e-02   3.59000000e-02   4.80000000e-03   9.10000000e-02   4.12100000e+00
   5.10000000e+00   2.69864426e+00   1.42466934e+00   1.35412449e-02   1.93158992e-02   3.64258681e-02   4.90986583e-03   9.37201927e-02   4.21703380e+00
   5.20000000e+00   2.74653625e+00   1.46883502e+00   1.16721851e-02   2.34214309e-02   3.69020266e-02   5.01878820e-03   9.77110981e-02   4.31308237e+00
   5.30000000e+00   2.79379872e+00   1.51247766e+00   9.86240744e-03   2.89579265e-02   3.73337055e-02   5.12666511e-03   1.02757745e-01   4.40903412e+00
   5.40000000e+00   2.84155390e+00   1.55618158e+00   8.49211188e-03   3.44624271e-02   3.77639057e-02   5.23375938e-03   1.06978366e-01   4.50471385e+00
   5.50000000e+00   2.89000000e+00   1.60000000e+00   7.50000000e-03   3.91000000e-02   3.82000000e-02   5.34000000e-03   1.10000000e-01   4.60000000e+00
   5.60000000e+00   2.93914455e+00   1.64387241e+00   6.79390717e-03   4.22921878e-02   3.86420781e-02   5.44524550e-03   1.11763942e-01   4.69478091e+00
   5.70000000e+00   2.98899514e+00   1.68773649e+00   6.31234523e-03   4.36110000e-02   3.90902311e-02   5.54935330e-03   1.12211744e-01   4.78894338e+00
   5.80000000e+00   3.03944870e+00   1.73158037e+00   6.00018217e-03   4.31346956e-02   3.95534357e-02   5.65397254e-03   1.11514533e-01   4.88254361e+00
   5.90000000e+00   3.08983225e+00   1.77566301e+00   5.74618110e-03   4.24429976e-02   4.00860950e-02   5.77002469e-03   1.11024196e-01   4.97651946e+00
   6.00000000e+00   3.14000000e+00   1.82000000e+00   5.53000000e-03   4.18000000e-02   4.07000000e-02   5.90000000e-03   1.11000000e-01   5.07100000e+00
   6.10000000e+00   3.18991460e+00   1.86455490e+00   5.34812935e-03   4.12038156e-02   4.13986509e-02   6.04472734e-03   1.11476273e-01   5.16594577e+00
   6.20000000e+00   3.23953835e+00   1.90929006e+00   5.19768102e-03   4.06527107e-02   4.21860719e-02   6.20514284e-03   1.12487799e-01   5.26131621e+00
   6.30000000e+00   3.28883327e+00   1.95416664e+00   5.07631185e-03   4.01450964e-02   4.30668501e-02   6.38230001e-03   1.14069749e-01   5.35706966e+00
   6.40000000e+00   3.33776111e+00   1.99914468e+00   4.98216279e-03   3.96795211e-02   4.40461801e-02   6.57738116e-03   1.16257610e-01   5.45316340e+00
   6.50000000e+00   3.38628343e+00   2.04418314e+00   4.91381139e-03   3.92546636e-02   4.51299147e-02   6.79171055e-03   1.19087114e-01   5.54955369e+00
   6.60000000e+00   3.43436163e+00   2.08923998e+00   4.87023594e-03   3.88693268e-02   4.63246232e-02   7.02676924e-03   1.22594159e-01   5.64619577e+00
   6.70000000e+00   3.48195699e+00   2.13427217e+00   4.85078994e-03   3.85224321e-02   4.76376578e-02   7.28421202e-03   1.26814732e-01   5.74304389e+00
   6.80000000e+00   3.52903076e+00   2.17923578e+00   4.85518615e-03   3.82130146e-02   4.90772280e-02   7.56588662e-03   1.31784826e-01   5.84005137e+00
   6.90000000e+00   3.57554417e+00   2.22408606e+00   4.88348943e-03   3.79402180e-02   5.06524866e-02   7.87385554e-03   1.37540356e-01   5.93717058e+00
   7.00000000e+00   3.62145849e+00   2.26877748e+00   4.93611839e-03   3.77032914e-02   5.23736253e-02   8.21042088e-03   1.44117071e-01   6.03435305e+00
   7.10000000e+00   3.66673513e+00   2.31326382e+00   5.01385573e-03   3.75015855e-02   5.42519839e-02   8.57815249e-03   1.51550464e-01   6.13154941e+00
   7.20000000e+00   3.71133561e+00   2.35749823e+00   5.11786761e-03   3.73345494e-02   5.63001734e-02   8.97992000e-03   1.59875687e-01   6.22870952e+00
   7.30000000e+00   3.75522168e+00   2.40143332e+00   5.24973294e-03   3.72017286e-02   5.85322153e-02   9.41892930e-03   1.69127449e-01   6.32578245e+00
   7.40000000e+00   3.79835535e+00   2.44502124e+00   5.41148333e-03   3.71027626e-02   6.09636991e-02   9.89876399e-03   1.79339928e-01   6.42271652e+00
   7.50000000e+00   3.84069895e+00   2.48821377e+00   5.60565528e-03   3.70373833e-02   6.36119606e-02   1.04234327e-02   1.90546675e-01   6.51945939e+00
   7.60000000e+00   3.88221518e+00   2.53096237e+00   5.83535657e-03   3.70054139e-02   6.64962835e-02   1.09974229e-02   2.02780515e-01   6.61595807e+00
   7.70000000e+00   3.92286716e+00   2.57321833e+00   6.10434907e-03   3.70067679e-02   6.96381275e-02   1.16257626e-02   2.16073450e-01   6.71215894e+00
   7.80000000e+00   3.96261850e+00   2.61493278e+00   6.41715118e-03   3.70414491e-02   7.30613879e-02   1.23140904e-02   2.30456564e-01   6.80800785e+00
   7.90000000e+00   4.00143333e+00   2.65605688e+00   6.77916386e-03   3.71095511e-02   7.67926884e-02   1.30687362e-02   2.45959923e-01   6.90345013e+00
   8.00000000e+00   4.03927638e+00   2.69654183e+00   7.19682497e-03   3.72112582e-02   8.08617148e-02   1.38968128e-02   2.62612477e-01   6.99843068e+00
   8.10000000e+00   4.07611301e+00   2.73633898e+00   7.67779831e-03   3.73468459e-02   8.53015931e-02   1.48063219e-02   2.80441962e-01   7.09289395e+00
   8.20000000e+00   4.11190928e+00   2.77539999e+00   8.23120480e-03   3.75166823e-02   9.01493207e-02   1.58062748e-02   2.99474805e-01   7.18678407e+00
   8.30000000e+00   4.14663200e+00   2.81367682e+00   8.86790568e-03   3.77212297e-02   9.54462557e-02   1.69068320e-02   3.19736029e-01   7.28004485e+00
   8.40000000e+00   4.18024876e+00   2.85112194e+00   9.60084972e-03   3.79610469e-02   1.01238675e-01   1.81194623e-02   3.41249156e-01   7.37261986e+00
   8.50000000e+00   4.21272801e+00   2.88768834e+00   1.04454999e-02   3.82367912e-02   1.07578413e-01   1.94571282e-02   3.64036116e-01   7.46445247e+00
   8.60000000e+00   4.24403910e+00   2.92332966e+00   1.14203584e-02   3.85492222e-02   1.14523584e-01   2.09344974e-02   3.88117157e-01   7.55548592e+00
   8.70000000e+00   4.27415231e+00   2.95800030e+00   1.25476151e-02   3.88992046e-02   1.22139420e-01   2.25681885e-02   4.13510754e-01   7.64566337e+00
   8.80000000e+00   4.30303892e+00   2.99165551e+00   1.38539493e-02   3.92877125e-02   1.30499213e-01   2.43770544e-02   4.40233528e-01   7.73492796e+00
   8.90000000e+00   4.33067125e+00   3.02425146e+00   1.53715247e-02   3.97158340e-02   1.39685413e-01   2.63825103e-02   4.68300156e-01   7.82322286e+00
   9.00000000e+00   4.35702268e+00   3.05574537e+00   1.71392278e-02   4.01847759e-02   1.49790869e-01   2.86089138e-02   4.97723299e-01   7.91049134e+00
   9.10000000e+00   4.38280053e+00   3.08667029e+00   1.91349300e-02   4.06748870e-02   1.60673062e-01   3.10184906e-02   5.27878224e-01   7.99734904e+00
   9.20000000e+00   4.40872989e+00   3.11758286e+00   2.13134720e-02   4.11655686e-02   1.72130004e-01   3.35550327e-02   5.58127994e-01   8.08444074e+00
   9.30000000e+00   4.43481164e+00   3.14847647e+00   2.36849911e-02   4.16566978e-02   1.84172958e-01   3.62169926e-02   5.88465290e-01   8.17175341e+00
   9.40000000e+00   4.46104668e+00   3.17934446e+00   2.62593486e-02   4.21481502e-02   1.96811705e-01   3.90018148e-02   6.18882647e-01   8.25927379e+00
   9.50000000e+00   4.48743589e+00   3.21018011e+00   2.90460025e-02   4.26397999e-02   2.10054389e-01   4.19058796e-02   6.49372455e-01   8.34698845e+00
   9.60000000e+00   4.51398018e+00   3.24097662e+00   3.20538714e-02   4.31315191e-02   2.23907362e-01   4.49244551e-02   6.79926957e-01   8.43488376e+00
   9.70000000e+00   4.54068045e+00   3.27172718e+00   3.52911904e-02   4.36231789e-02   2.38375031e-01   4.80516593e-02   7.10538254e-01   8.52294588e+00
   9.80000000e+00   4.56753761e+00   3.30242490e+00   3.87653603e-02   4.41146486e-02   2.53459707e-01   5.12804318e-02   7.41198300e-01   8.61116081e+00
   9.90000000e+00   4.59455258e+00   3.33306284e+00   4.24827909e-02   4.46057963e-02   2.69161457e-01   5.46025181e-02   7.71898906e-01   8.69951432e+00
   1.00000000e+01   4.62172628e+00   3.36363402e+00   4.64487418e-02   4.50964887e-02   2.85477963e-01   5.80084661e-02   8.02631742e-01   8.78799204e+00
   1.01000000e+01   4.64905963e+00   3.39413144e+00   5.06671605e-02   4.55865911e-02   3.02404385e-01   6.14876373e-02   8.33388332e-01   8.87657940e+00
   1.02000000e+01   4.67655357e+00   3.42454802e+00   5.51405225e-02   4.60759678e-02   3.19933234e-01   6.50282314e-02   8.64160062e-01   8.96526165e+00
   1.03000000e+01   4.70420904e+00   3.45487666e+00   5.98696731e-02   4.65644816e-02   3.38054252e-01   6.86173265e-02   8.94938176e-01   9.05402388e+00
   1.04000000e+01   4.73202697e+00   3.48511023e+00   6.48536756e-02   4.70519945e-02   3.56754309e-01   7.22409347e-02   9.25713778e-01   9.14285098e+00
   1.05000000e+01   4.76000832e+00   3.51524157e+00   7.00896677e-02   4.75383673e-02   3.76017301e-01   7.58840730e-02   9.56477834e-01   9.23172772e+00
   1.06000000e+01   4.78815403e+00   3.54526346e+00   7.55727291e-02   4.80234597e-02   3.95824074e-01   7.95308499e-02   9.87221171e-01   9.32063867e+00
   1.07000000e+01   4.81646507e+00   3.57516869e+00   8.12957626e-02   4.85071306e-02   4.16152356e-01   8.31645662e-02   1.01793448e+00   9.40956825e+00
   1.08000000e+01   4.84494240e+00   3.60495001e+00   8.72493925e-02   4.89892380e-02   4.36976706e-01   8.67678313e-02   1.04860832e+00   9.49850074e+00
   1.09000000e+01   4.87358700e+00   3.63460014e+00   9.34218820e-02   4.94696391e-02   4.58268485e-01   9.03226919e-02   1.07923312e+00   9.58742025e+00
   1.10000000e+01   4.90239983e+00   3.66411178e+00   9.97990739e-02   4.99481904e-02   4.79995841e-01   9.38107732e-02   1.10979915e+00   9.67631077e+00
   1.11000000e+01   4.93138188e+00   3.69347764e+00   1.06364355e-01   5.04247476e-02   5.02123714e-01   9.72134311e-02   1.14029659e+00   9.76515612e+00
   1.12000000e+01   4.96053414e+00   3.72269039e+00   1.13098646e-01   5.08991661e-02   5.24613869e-01   1.00511913e-01   1.17071546e+00   9.85394000e+00
   1.13000000e+01   4.98985760e+00   3.75174270e+00   1.19980426e-01   5.13713004e-02   5.47424939e-01   1.03687529e-01   1.20104566e+00   9.94264597e+00
   1.14000000e+01   5.01935326e+00   3.78062723e+00   1.26985781e-01   5.18410047e-02   5.70512502e-01   1.06721819e-01   1.23127697e+00   1.00312575e+01
   1.15000000e+01   5.04902211e+00   3.80933665e+00   1.34088485e-01   5.23081329e-02   5.93829173e-01   1.09596738e-01   1.26139904e+00   1.01197578e+01
   1.16000000e+01   5.07886518e+00   3.83786359e+00   1.41260121e-01   5.27725386e-02   6.17324722e-01   1.12294827e-01   1.29140139e+00   1.02081302e+01
   1.17000000e+01   5.10888348e+00   3.86620073e+00   1.48470224e-01   5.32340751e-02   6.40946214e-01   1.14799391e-01   1.32127343e+00   1.02963576e+01
   1.18000000e+01   5.13907803e+00   3.89434073e+00   1.55686463e-01   5.36925954e-02   6.64638170e-01   1.17094672e-01   1.35100445e+00   1.03844232e+01
   1.19000000e+01   5.16944986e+00   3.92227626e+00   1.62874853e-01   5.41479527e-02   6.88342759e-01   1.19166009e-01   1.38058362e+00   1.04723097e+01
   1.20000000e+01   5.20000000e+00   3.95000000e+00   1.70000000e-01   5.46000000e-02   7.12000000e-01   1.21000000e-01   1.41000000e+00   1.05600000e+01
   1.21000000e+01   5.23072949e+00   3.97750465e+00   1.77025367e-01   5.50485904e-02   7.35547994e-01   1.22584641e-01   1.43924252e+00   1.06474767e+01
   1.22000000e+01   5.26163938e+00   4.00478292e+00   1.83913575e-01   5.54935773e-02   7.58923173e-01   1.23909459e-01   1.46830002e+00   1.07347223e+01
   1.23000000e+01   5.29273072e+00   4.03182755e+00   1.90626716e-01   5.59348142e-02   7.82060566e-01   1.24965628e-01   1.49716123e+00   1.08217195e+01
   1.24000000e+01   5.32400457e+00   4.05863131e+00   1.97126697e-01   5.63721547e-02   8.04894091e-01   1.25746065e-01   1.52581475e+00   1.09084506e+01
   1.25000000e+01   5.35546199e+00   4.08518696e+00   2.03375588e-01   5.68054533e-02   8.27356849e-01   1.26245511e-01   1.55424911e+00   1.09948981e+01
   1.26000000e+01   5.38710405e+00   4.11148735e+00   2.09335988e-01   5.72345646e-02   8.49381446e-01   1.26460588e-01   1.58245272e+00   1.10810441e+01
   1.27000000e+01   5.41893183e+00   4.13752530e+00   2.14971393e-01   5.76593437e-02   8.70900319e-01   1.26389840e-01   1.61041389e+00   1.11668710e+01
   1.28000000e+01   5.45094641e+00   4.16329372e+00   2.20246565e-01   5.80796466e-02   8.91846076e-01   1.26033746e-01   1.63812084e+00   1.12523610e+01
   1.29000000e+01   5.48314889e+00   4.18878552e+00   2.25127897e-01   5.84953297e-02   9.12151840e-01   1.25394717e-01   1.66556170e+00   1.13374961e+01
   1.30000000e+01   5.51554034e+00   4.21399368e+00   2.29583771e-01   5.89062506e-02   9.31751601e-01   1.24477067e-01   1.69272451e+00   1.14222585e+01
   1.31000000e+01   5.54812189e+00   4.23891122e+00   2.33584894e-01   5.93122674e-02   9.50580569e-01   1.23286967e-01   1.71959721e+00   1.15066303e+01
   1.32000000e+01   5.58089463e+00   4.26353120e+00   2.37104622e-01   5.97132392e-02   9.68575533e-01   1.21832372e-01   1.74616766e+00   1.15905935e+01
   1.33000000e+01   5.61385968e+00   4.28784674e+00   2.40119254e-01   6.01090264e-02   9.85675206e-01   1.20122938e-01   1.77242365e+00   1.16741301e+01
   1.34000000e+01   5.64701816e+00   4.31185102e+00   2.42608297e-01   6.04994902e-02   1.00182057e+00   1.18169911e-01   1.79835288e+00   1.17572221e+01
